SpectraSuite Data File
++++++++++++++++++++++++++++++++++++
Date: Fri Oct 02 18:13:00 EDT 2015
User: lab3
Dark Spectrum Present: No
Reference Spectrum Present: No
Number of Sampled Component Spectra: 1
Spectrometers: USB2E7196
Integration Time (usec): 46000 (USB2E7196)
Spectra Averaged: 1500 (USB2E7196)
Boxcar Smoothing: 10 (USB2E7196)
Correct for Electrical Dark: No (USB2E7196)
Strobe/Lamp Enabled: No (USB2E7196)
Correct for Detector Non-linearity: No (USB2E7196)
Correct for Stray Light: No (USB2E7196)
Number of Pixels in Processed Spectrum: 2048
>>>>>Begin Processed Spectral Data<<<<<
339.09	0.00
339.48	215.90
339.86	217.18
340.24	218.61
340.63	220.26
341.01	223.33
341.39	222.78
341.78	224.13
342.16	225.40
342.54	225.88
342.93	214.17
343.31	224.98
343.69	225.51
344.07	225.99
344.46	226.41
344.84	226.79
345.22	227.01
345.60	227.26
345.99	227.45
346.37	227.59
346.75	227.69
347.13	227.77
347.52	227.84
347.90	227.93
348.28	227.96
348.66	228.02
349.05	228.02
349.43	228.07
349.81	228.13
350.19	228.20
350.57	228.27
350.96	228.35
351.34	228.44
351.72	228.54
352.10	228.64
352.48	228.72
352.87	228.77
353.25	228.85
353.63	228.91
354.01	228.97
354.39	229.04
354.77	229.12
355.15	229.23
355.54	229.27
355.92	229.29
356.30	229.37
356.68	229.52
357.06	229.60
357.44	229.63
357.82	229.70
358.20	229.81
358.58	229.88
358.97	229.95
359.35	230.04
359.73	230.13
360.11	230.18
360.49	230.23
360.87	230.28
361.25	230.34
361.63	230.43
362.01	230.49
362.39	230.52
362.77	230.57
363.15	230.59
363.53	230.63
363.91	230.67
364.29	230.69
364.67	230.60
365.05	230.63
365.43	230.68
365.81	230.70
366.19	230.71
366.57	230.76
366.95	230.76
367.33	230.74
367.71	230.73
368.09	230.74
368.47	230.74
368.85	230.73
369.23	230.74
369.61	230.68
369.99	230.71
370.37	230.71
370.75	230.78
371.13	230.75
371.51	230.71
371.89	230.69
372.27	230.66
372.65	230.63
373.03	230.59
373.41	230.54
373.78	230.50
374.16	230.40
374.54	230.32
374.92	230.27
375.30	230.22
375.68	230.15
376.06	230.11
376.44	230.06
376.82	230.01
377.19	229.96
377.57	229.91
377.95	229.81
378.33	229.75
378.71	229.60
379.09	229.55
379.47	229.52
379.84	229.46
380.22	229.39
380.60	229.33
380.98	229.28
381.36	229.22
381.73	229.16
382.11	229.13
382.49	229.10
382.87	229.03
383.25	228.99
383.62	229.10
384.00	229.02
384.38	228.98
384.76	228.97
385.13	228.96
385.51	228.92
385.89	228.86
386.27	228.83
386.64	228.82
387.02	228.76
387.40	228.71
387.78	228.69
388.15	228.66
388.53	228.63
388.91	228.60
389.29	228.56
389.66	228.55
390.04	228.51
390.42	228.50
390.79	228.50
391.17	228.47
391.55	228.32
391.92	228.31
392.30	228.31
392.68	228.27
393.05	228.27
393.43	228.26
393.81	228.28
394.18	228.26
394.56	228.26
394.94	228.30
395.31	228.30
395.69	228.34
396.06	228.37
396.44	228.39
396.82	228.40
397.19	228.49
397.57	228.50
397.95	228.54
398.32	228.53
398.70	228.57
399.07	228.64
399.45	228.68
399.82	228.73
400.20	228.77
400.58	228.82
400.95	228.82
401.33	228.90
401.70	229.04
402.08	229.13
402.45	229.22
402.83	229.33
403.20	229.45
403.58	229.53
403.95	229.67
404.33	229.82
404.71	229.98
405.08	230.18
405.46	230.34
405.83	230.53
406.21	230.72
406.58	230.93
406.96	231.14
407.33	231.37
407.70	231.64
408.08	232.01
408.45	232.33
408.83	232.68
409.20	233.00
409.58	233.28
409.95	233.67
410.33	234.09
410.70	234.49
411.08	234.94
411.45	235.44
411.82	235.93
412.20	236.51
412.57	237.19
412.95	237.73
413.32	238.42
413.69	239.13
414.07	239.90
414.44	240.73
414.82	241.58
415.19	242.58
415.56	243.58
415.94	244.62
416.31	245.79
416.68	246.96
417.06	248.31
417.43	249.59
417.81	251.06
418.18	252.56
418.55	254.18
418.93	255.87
419.30	257.63
419.67	259.52
420.04	261.43
420.42	263.43
420.79	265.75
421.16	268.08
421.54	270.47
421.91	272.94
422.28	275.51
422.66	278.29
423.03	280.95
423.40	283.72
423.77	286.69
424.15	289.75
424.52	292.93
424.89	296.37
425.26	299.78
425.64	302.95
426.01	306.52
426.38	310.16
426.75	313.93
427.13	317.79
427.50	321.84
427.87	326.04
428.24	330.29
428.61	334.37
428.99	338.78
429.36	343.62
429.73	348.25
430.10	352.88
430.47	357.61
430.85	362.48
431.22	367.73
431.59	373.12
431.96	378.36
432.33	384.19
432.70	389.75
433.08	396.34
433.45	402.54
433.82	408.66
434.19	415.50
434.56	422.26
434.93	428.74
435.30	435.17
435.68	442.45
436.05	449.56
436.42	456.64
436.79	463.12
437.16	470.12
437.53	477.59
437.90	485.06
438.27	492.35
438.64	500.24
439.01	507.38
439.38	513.91
439.75	520.20
440.13	527.28
440.50	534.00
440.87	539.30
441.24	545.13
441.61	551.50
441.98	556.09
442.35	561.54
442.72	567.14
443.09	572.45
443.46	575.75
443.83	578.16
444.20	580.12
444.57	583.12
444.94	584.73
445.31	586.42
445.68	587.84
446.05	588.82
446.42	588.28
446.79	587.58
447.16	586.92
447.53	586.31
447.90	583.88
448.27	581.52
448.64	578.05
449.01	575.59
449.37	570.87
449.74	566.58
450.11	561.11
450.48	555.14
450.85	549.18
451.22	544.06
451.59	539.07
451.96	534.57
452.33	528.06
452.70	522.31
453.07	515.29
453.43	508.31
453.80	501.56
454.17	495.10
454.54	489.15
454.91	482.45
455.28	476.18
455.65	470.26
456.02	464.03
456.38	459.02
456.75	452.57
457.12	447.36
457.49	442.14
457.86	437.22
458.23	432.91
458.59	428.13
458.96	423.26
459.33	418.98
459.70	414.60
460.07	411.32
460.43	407.43
460.80	403.82
461.17	400.69
461.54	397.26
461.91	394.07
462.27	390.84
462.64	388.24
463.01	385.22
463.38	382.20
463.74	379.45
464.11	377.05
464.48	374.90
464.85	372.54
465.21	370.76
465.58	368.77
465.95	366.48
466.32	364.68
466.68	362.89
467.05	361.09
467.42	359.33
467.78	357.42
468.15	355.67
468.52	354.40
468.88	352.68
469.25	351.13
469.62	349.90
469.98	348.55
470.35	347.35
470.72	346.27
471.08	345.14
471.45	344.21
471.82	343.18
472.18	342.07
472.55	341.37
472.92	340.49
473.28	339.79
473.65	339.04
474.02	338.31
474.38	337.72
474.75	337.38
475.11	336.90
475.48	336.68
475.85	336.45
476.21	336.32
476.58	336.24
476.94	336.38
477.31	336.45
477.67	336.55
478.04	336.75
478.41	337.03
478.77	337.44
479.14	337.70
479.50	338.17
479.87	338.82
480.23	339.46
480.60	340.08
480.96	340.71
481.33	341.64
481.69	342.59
482.06	343.51
482.42	344.37
482.79	345.44
483.15	346.67
483.52	348.07
483.88	349.43
484.25	350.87
484.61	352.36
484.98	353.98
485.34	355.80
485.71	357.72
486.07	359.77
486.44	361.80
486.80	364.07
487.17	366.44
487.53	369.01
487.90	371.70
488.26	374.66
488.62	377.76
488.99	380.88
489.35	384.15
489.72	387.71
490.08	391.46
490.44	395.30
490.81	399.31
491.17	403.42
491.54	407.83
491.90	412.40
492.26	417.28
492.63	422.40
492.99	427.74
493.36	433.25
493.72	439.05
494.08	445.02
494.45	451.36
494.81	457.93
495.17	464.71
495.54	471.87
495.90	479.28
496.26	486.87
496.63	494.71
496.99	502.87
497.35	511.42
497.72	520.22
498.08	529.26
498.44	538.60
498.80	548.48
499.17	558.63
499.53	569.06
499.89	579.89
500.26	590.94
500.62	602.26
500.98	614.21
501.34	626.33
501.71	638.96
502.07	651.80
502.43	665.16
502.79	678.72
503.16	692.73
503.52	706.95
503.88	721.61
504.24	736.72
504.60	752.03
504.97	767.81
505.33	784.01
505.69	801.10
506.05	818.49
506.41	835.80
506.78	853.35
507.14	871.41
507.50	889.92
507.86	908.75
508.22	927.83
508.59	946.76
508.95	966.54
509.31	987.06
509.67	1008.17
510.03	1029.33
510.39	1050.56
510.75	1072.04
511.12	1093.79
511.48	1115.63
511.84	1137.60
512.20	1160.01
512.56	1183.21
512.92	1206.43
513.28	1229.33
513.64	1252.56
514.00	1276.18
514.37	1300.06
514.73	1324.04
515.09	1347.87
515.45	1372.16
515.81	1396.49
516.17	1421.03
516.53	1444.99
516.89	1468.89
517.25	1493.06
517.61	1517.11
517.97	1541.65
518.33	1565.66
518.69	1589.64
519.05	1614.21
519.41	1639.04
519.77	1663.94
520.13	1688.27
520.49	1712.54
520.85	1737.16
521.21	1761.19
521.57	1785.77
521.93	1809.88
522.29	1834.40
522.65	1858.51
523.01	1882.52
523.37	1906.21
523.73	1930.61
524.09	1954.81
524.45	1978.78
524.81	2002.33
525.17	2025.76
525.53	2048.64
525.89	2071.98
526.25	2095.34
526.61	2117.68
526.97	2140.19
527.33	2162.70
527.68	2184.83
528.04	2206.21
528.40	2226.66
528.76	2247.65
529.12	2267.96
529.48	2287.86
529.84	2306.12
530.20	2325.05
530.56	2343.34
530.91	2361.87
531.27	2379.99
531.63	2397.34
531.99	2414.30
532.35	2430.62
532.71	2446.96
533.07	2463.94
533.42	2479.22
533.78	2495.48
534.14	2511.92
534.50	2527.26
534.86	2542.51
535.21	2555.89
535.57	2569.79
535.93	2583.42
536.29	2595.81
536.65	2608.24
537.00	2620.03
537.36	2632.66
537.72	2643.73
538.08	2654.46
538.44	2664.56
538.79	2674.22
539.15	2683.00
539.51	2691.35
539.87	2699.01
540.22	2704.93
540.58	2711.01
540.94	2718.25
541.29	2723.72
541.65	2727.46
542.01	2730.69
542.37	2733.25
542.72	2737.13
543.08	2739.32
543.44	2742.11
543.79	2743.78
544.15	2744.59
544.51	2745.83
544.87	2745.96
545.22	2745.33
545.58	2743.99
545.94	2742.69
546.29	2740.12
546.65	2737.59
547.01	2735.12
547.36	2733.33
547.72	2731.37
548.07	2727.71
548.43	2722.56
548.79	2716.71
549.14	2712.11
549.50	2707.61
549.86	2702.15
550.21	2695.58
550.57	2689.96
550.92	2682.05
551.28	2674.90
551.64	2667.90
551.99	2660.39
552.35	2652.27
552.70	2644.49
553.06	2636.98
553.41	2628.76
553.77	2620.31
554.13	2611.73
554.48	2602.22
554.84	2591.63
555.19	2581.72
555.55	2571.72
555.90	2561.68
556.26	2552.13
556.61	2541.46
556.97	2529.23
557.32	2517.51
557.68	2505.71
558.03	2493.72
558.39	2482.88
558.74	2472.23
559.10	2459.92
559.45	2447.95
559.81	2436.54
560.16	2424.41
560.52	2412.51
560.87	2400.95
561.23	2388.56
561.58	2376.41
561.94	2363.76
562.29	2350.53
562.64	2338.01
563.00	2325.19
563.35	2312.96
563.71	2300.39
564.06	2287.65
564.42	2275.67
564.77	2262.99
565.12	2250.24
565.48	2237.44
565.83	2224.68
566.19	2211.91
566.54	2199.15
566.89	2185.17
567.25	2171.37
567.60	2158.92
567.96	2145.57
568.31	2130.87
568.66	2117.05
569.02	2104.16
569.37	2091.32
569.72	2079.01
570.08	2065.39
570.43	2051.43
570.78	2037.15
571.14	2022.22
571.49	2008.10
571.84	1994.45
572.20	1979.58
572.55	1965.02
572.90	1950.20
573.26	1935.40
573.61	1920.09
573.96	1905.20
574.31	1890.64
574.67	1876.03
575.02	1860.46
575.37	1845.00
575.72	1830.41
576.08	1816.02
576.43	1800.52
576.78	1785.46
577.13	1770.70
577.49	1756.23
577.84	1742.31
578.19	1727.48
578.54	1712.89
578.90	1697.76
579.25	1682.55
579.60	1668.94
579.95	1655.08
580.30	1641.20
580.66	1626.98
581.01	1612.71
581.36	1598.50
581.71	1585.28
582.06	1571.90
582.42	1558.74
582.77	1545.56
583.12	1532.30
583.47	1518.98
583.82	1505.76
584.17	1492.18
584.53	1478.21
584.88	1464.62
585.23	1450.64
585.58	1437.54
585.93	1424.68
586.28	1412.53
586.63	1400.40
586.98	1387.70
587.34	1375.09
587.69	1362.18
588.04	1349.66
588.39	1337.55
588.74	1325.51
589.09	1313.25
589.44	1300.61
589.79	1288.63
590.14	1276.73
590.49	1264.80
590.84	1252.95
591.19	1241.58
591.54	1230.00
591.89	1218.58
592.25	1207.32
592.60	1195.74
592.95	1184.54
593.30	1173.50
593.65	1162.16
594.00	1150.86
594.35	1140.25
594.70	1129.28
595.05	1119.17
595.40	1108.94
595.75	1098.51
596.10	1088.64
596.45	1078.42
596.80	1068.53
597.15	1058.45
597.50	1048.56
597.85	1039.01
598.19	1029.31
598.54	1019.68
598.89	1010.50
599.24	1001.64
599.59	992.65
599.94	984.54
600.29	976.19
600.64	967.53
600.99	958.53
601.34	949.99
601.69	941.08
602.04	932.77
602.39	924.35
602.74	915.91
603.08	907.46
603.43	899.00
603.78	890.72
604.13	882.67
604.48	874.53
604.83	866.57
605.18	858.53
605.53	850.65
605.87	842.55
606.22	834.85
606.57	827.05
606.92	819.10
607.27	811.11
607.62	803.53
607.96	796.34
608.31	789.56
608.66	782.57
609.01	775.88
609.36	769.29
609.70	762.41
610.05	755.59
610.40	749.04
610.75	742.46
611.10	736.22
611.44	729.81
611.79	723.51
612.14	717.14
612.49	710.90
612.83	704.94
613.18	699.10
613.53	693.14
613.88	687.26
614.22	681.81
614.57	676.22
614.92	670.44
615.27	664.82
615.61	659.28
615.96	653.77
616.31	648.26
616.65	642.85
617.00	637.69
617.35	632.59
617.70	627.56
618.04	622.53
618.39	617.46
618.74	612.67
619.08	607.90
619.43	603.25
619.78	598.60
620.12	593.90
620.47	589.41
620.82	584.99
621.16	580.54
621.51	575.98
621.85	571.54
622.20	567.26
622.55	563.01
622.89	558.81
623.24	554.62
623.59	550.50
623.93	546.52
624.28	542.62
624.62	538.82
624.97	535.05
625.32	531.29
625.66	527.45
626.01	523.56
626.35	519.80
626.70	516.06
627.04	512.50
627.39	508.91
627.73	505.47
628.08	502.11
628.43	498.78
628.77	495.55
629.12	492.41
629.46	489.25
629.81	486.02
630.15	482.82
630.50	479.69
630.84	476.62
631.19	473.61
631.53	470.72
631.88	467.77
632.22	464.86
632.57	462.22
632.91	459.63
633.26	457.15
633.60	454.64
633.95	452.21
634.29	449.67
634.64	447.22
634.98	444.55
635.32	442.06
635.67	439.77
636.01	437.38
636.36	435.04
636.70	432.89
637.05	430.69
637.39	428.53
637.73	426.42
638.08	424.39
638.42	422.32
638.77	420.14
639.11	417.93
639.45	415.79
639.80	413.59
640.14	411.51
640.49	409.38
640.83	407.24
641.17	405.19
641.52	403.20
641.86	401.21
642.20	399.46
642.55	397.53
642.89	395.63
643.23	393.83
643.58	392.20
643.92	390.41
644.26	388.71
644.61	387.05
644.95	385.32
645.29	383.55
645.64	381.81
645.98	380.16
646.32	378.62
646.66	377.06
647.01	375.53
647.35	374.03
647.69	372.54
648.04	371.18
648.38	369.72
648.72	368.31
649.06	366.89
649.41	365.47
649.75	364.10
650.09	362.75
650.43	361.41
650.78	360.01
651.12	358.64
651.46	357.33
651.80	356.05
652.14	354.82
652.49	353.62
652.83	352.40
653.17	351.21
653.51	350.06
653.85	348.96
654.20	347.82
654.54	346.60
654.88	345.48
655.22	344.37
655.56	343.26
655.90	342.18
656.25	341.16
656.59	340.12
656.93	339.14
657.27	338.18
657.61	337.15
657.95	336.16
658.29	335.18
658.64	334.24
658.98	333.30
659.32	332.38
659.66	331.50
660.00	330.65
660.34	329.80
660.68	328.90
661.02	327.95
661.36	327.05
661.70	326.20
662.05	325.34
662.39	324.50
662.73	323.75
663.07	322.98
663.41	322.19
663.75	321.38
664.09	320.59
664.43	319.74
664.77	318.99
665.11	318.18
665.45	317.47
665.79	316.73
666.13	315.95
666.47	315.17
666.81	314.38
667.15	313.54
667.49	312.83
667.83	312.18
668.17	311.51
668.51	310.88
668.85	310.26
669.19	309.67
669.53	309.00
669.87	308.31
670.21	307.66
670.55	307.01
670.89	306.47
671.23	305.86
671.57	305.28
671.91	304.74
672.25	304.23
672.58	303.69
672.92	303.09
673.26	302.58
673.60	302.06
673.94	301.57
674.28	301.12
674.62	300.60
674.96	300.04
675.30	299.54
675.64	299.00
675.97	298.45
676.31	297.89
676.65	297.36
676.99	296.90
677.33	296.37
677.67	295.88
678.01	295.31
678.34	294.83
678.68	294.37
679.02	293.83
679.36	293.30
679.70	292.78
680.04	292.30
680.37	291.82
680.71	291.35
681.05	290.88
681.39	290.38
681.73	289.86
682.06	289.36
682.40	288.89
682.74	288.47
683.08	288.08
683.42	287.64
683.75	287.24
684.09	286.74
684.43	286.32
684.77	285.88
685.10	285.49
685.44	285.06
685.78	284.62
686.12	284.23
686.45	283.82
686.79	283.39
687.13	282.98
687.46	282.55
687.80	282.14
688.14	281.68
688.48	281.29
688.81	280.89
689.15	280.53
689.49	280.10
689.82	279.68
690.16	279.20
690.50	278.80
690.83	278.38
691.17	277.96
691.51	277.55
691.84	277.18
692.18	276.75
692.52	276.32
692.85	275.92
693.19	275.55
693.52	275.15
693.86	274.76
694.20	274.37
694.53	273.99
694.87	273.59
695.21	273.20
695.54	272.80
695.88	272.41
696.21	271.99
696.55	271.61
696.88	271.23
697.22	270.86
697.56	270.48
697.89	270.06
698.23	269.69
698.56	269.30
698.90	268.93
699.23	268.53
699.57	268.16
699.90	267.78
700.24	267.39
700.58	267.05
700.91	266.73
701.25	266.49
701.58	266.19
701.92	265.89
702.25	265.57
702.59	265.23
702.92	264.88
703.26	264.54
703.59	264.18
703.93	263.94
704.26	263.62
704.60	263.29
704.93	262.96
705.26	262.62
705.60	262.33
705.93	261.97
706.27	261.70
706.60	261.43
706.94	261.16
707.27	260.82
707.61	260.50
707.94	260.15
708.27	259.72
708.61	259.35
708.94	259.01
709.28	258.70
709.61	258.39
709.94	258.12
710.28	257.86
710.61	257.62
710.95	257.24
711.28	257.04
711.61	256.76
711.95	256.52
712.28	256.24
712.61	255.94
712.95	255.75
713.28	255.54
713.61	255.24
713.95	254.92
714.28	254.67
714.61	254.40
714.95	254.15
715.28	253.90
715.61	253.65
715.95	253.42
716.28	253.18
716.61	252.98
716.95	252.72
717.28	252.48
717.61	252.22
717.94	251.97
718.28	251.65
718.61	251.41
718.94	251.15
719.27	250.94
719.61	250.74
719.94	250.47
720.27	250.17
720.60	249.96
720.94	249.75
721.27	249.54
721.60	249.35
721.93	249.14
722.27	248.97
722.60	248.79
722.93	248.57
723.26	248.37
723.59	248.13
723.93	247.93
724.26	247.73
724.59	247.54
724.92	247.36
725.25	247.22
725.59	247.04
725.92	246.90
726.25	246.71
726.58	246.53
726.91	246.35
727.24	246.21
727.57	246.03
727.91	245.84
728.24	245.68
728.57	245.50
728.90	245.33
729.23	245.12
729.56	245.00
729.89	244.82
730.22	244.65
730.55	244.49
730.89	244.33
731.22	244.17
731.55	244.01
731.88	243.85
732.21	243.66
732.54	243.51
732.87	243.36
733.20	243.22
733.53	243.07
733.86	242.93
734.19	242.76
734.52	242.63
734.85	242.59
735.18	242.42
735.51	242.31
735.84	242.17
736.17	242.08
736.50	241.88
736.83	241.90
737.16	241.77
737.49	241.65
737.82	241.51
738.15	241.39
738.48	241.25
738.81	241.12
739.14	240.98
739.47	240.84
739.80	240.70
740.13	240.57
740.46	240.42
740.79	240.28
741.12	240.15
741.45	240.00
741.78	239.78
742.11	239.70
742.44	239.54
742.77	239.44
743.10	239.30
743.43	239.17
743.75	238.93
744.08	239.00
744.41	238.88
744.74	238.75
745.07	238.61
745.40	238.54
745.73	238.48
746.06	238.38
746.39	238.29
746.71	238.18
747.04	238.07
747.37	237.97
747.70	237.89
748.03	237.79
748.36	237.72
748.68	237.62
749.01	237.48
749.34	237.40
749.67	237.30
750.00	237.23
750.33	237.23
750.65	237.14
750.98	236.87
751.31	236.78
751.64	236.71
751.97	236.68
752.29	236.59
752.62	236.43
752.95	236.33
753.28	236.22
753.60	236.13
753.93	236.06
754.26	235.98
754.59	235.85
754.91	235.75
755.24	235.65
755.57	235.63
755.90	235.55
756.22	235.44
756.55	235.33
756.88	235.22
757.20	235.04
757.53	234.93
757.86	234.85
758.19	234.77
758.51	234.68
758.84	234.55
759.17	234.45
759.49	234.39
759.82	234.37
760.15	234.31
760.47	234.24
760.80	234.14
761.13	234.09
761.45	234.02
761.78	233.96
762.11	233.90
762.43	233.75
762.76	233.69
763.08	233.65
763.41	233.59
763.74	233.53
764.06	233.48
764.39	233.42
764.71	233.36
765.04	233.29
765.37	233.23
765.69	233.17
766.02	233.12
766.34	233.05
766.67	232.95
767.00	232.91
767.32	232.93
767.65	232.95
767.97	232.89
768.30	232.85
768.62	232.80
768.95	232.73
769.27	232.67
769.60	232.64
769.92	232.55
770.25	232.49
770.57	232.42
770.90	232.37
771.22	232.30
771.55	232.26
771.87	232.21
772.20	232.17
772.52	232.23
772.85	232.33
773.17	232.29
773.50	232.24
773.82	232.17
774.15	232.07
774.47	231.96
774.80	231.90
775.12	231.85
775.45	231.81
775.77	231.79
776.09	231.76
776.42	231.72
776.74	231.74
777.07	231.70
777.39	231.68
777.72	231.65
778.04	231.63
778.36	231.59
778.69	231.55
779.01	231.54
779.33	231.39
779.66	231.21
779.98	231.18
780.31	231.16
780.63	231.19
780.95	231.16
781.28	231.13
781.60	231.09
781.92	231.06
782.25	231.04
782.57	231.01
782.89	230.97
783.22	230.94
783.54	230.89
783.86	230.88
784.19	230.84
784.51	230.84
784.83	230.81
785.16	230.78
785.48	230.76
785.80	230.73
786.12	230.72
786.45	230.70
786.77	230.68
787.09	230.64
787.42	230.56
787.74	230.54
788.06	230.53
788.38	230.51
788.71	230.48
789.03	230.46
789.35	230.45
789.67	230.42
789.99	230.40
790.32	230.36
790.64	230.35
790.96	230.45
791.28	230.38
791.61	230.35
791.93	230.34
792.25	230.32
792.57	230.39
792.89	230.34
793.21	230.32
793.54	230.29
793.86	230.26
794.18	230.26
794.50	230.22
794.82	230.19
795.14	230.19
795.47	230.18
795.79	230.16
796.11	230.11
796.43	230.08
796.75	230.07
797.07	230.06
797.39	230.03
797.71	229.91
798.04	229.89
798.36	229.88
798.68	229.85
799.00	229.85
799.32	229.76
799.64	229.77
799.96	229.75
800.28	229.76
800.60	229.74
800.92	229.73
801.24	229.71
801.56	229.70
801.89	229.68
802.21	229.67
802.53	229.63
802.85	229.65
803.17	229.70
803.49	229.65
803.81	229.63
804.13	229.60
804.45	229.57
804.77	229.56
805.09	229.55
805.41	229.52
805.73	229.49
806.05	229.44
806.37	229.41
806.69	229.39
807.01	229.36
807.33	229.35
807.65	229.30
807.97	229.34
808.28	229.31
808.60	229.29
808.92	229.26
809.24	229.34
809.56	229.31
809.88	229.25
810.20	229.25
810.52	229.26
810.84	229.23
811.16	229.21
811.48	229.19
811.80	229.22
812.12	229.21
812.43	229.23
812.75	229.23
813.07	229.20
813.39	229.21
813.71	229.18
814.03	229.16
814.35	229.15
814.67	229.10
814.98	229.08
815.30	229.07
815.62	229.05
815.94	228.95
816.26	228.95
816.58	228.92
816.89	228.92
817.21	228.88
817.53	228.89
817.85	228.89
818.17	228.88
818.48	228.82
818.80	228.83
819.12	228.80
819.44	228.77
819.76	228.76
820.07	228.74
820.39	228.74
820.71	228.75
821.03	228.74
821.34	228.72
821.66	228.74
821.98	228.74
822.30	228.73
822.61	228.80
822.93	228.77
823.25	228.77
823.57	228.75
823.88	228.76
824.20	228.75
824.52	228.75
824.83	228.74
825.15	228.73
825.47	228.71
825.79	228.71
826.10	228.70
826.42	228.69
826.74	228.69
827.05	228.68
827.37	228.67
827.69	228.66
828.00	228.66
828.32	228.65
828.64	228.62
828.95	228.68
829.27	228.63
829.58	228.63
829.90	228.64
830.22	228.65
830.53	228.62
830.85	228.62
831.17	228.58
831.48	228.57
831.80	228.58
832.11	228.56
832.43	228.55
832.75	228.54
833.06	228.61
833.38	228.57
833.69	228.56
834.01	228.57
834.32	228.56
834.64	228.55
834.96	228.54
835.27	228.53
835.59	228.49
835.90	228.46
836.22	228.45
836.53	228.42
836.85	228.39
837.16	228.51
837.48	228.50
837.79	228.54
838.11	228.54
838.42	228.52
838.74	228.52
839.05	228.52
839.37	228.51
839.68	228.43
840.00	228.42
840.31	228.43
840.63	228.42
840.94	228.40
841.26	228.39
841.57	228.38
841.88	228.39
842.20	228.36
842.51	228.33
842.83	228.33
843.14	228.44
843.46	228.43
843.77	228.36
844.08	228.36
844.40	228.32
844.71	228.32
845.03	228.30
845.34	228.29
845.65	228.27
845.97	228.27
846.28	228.28
846.60	228.28
846.91	228.27
847.22	228.26
847.54	228.29
847.85	228.29
848.16	228.28
848.48	228.25
848.79	228.30
849.10	228.32
849.42	228.33
849.73	228.21
850.04	228.21
850.36	228.16
850.67	228.17
850.98	228.16
851.30	228.17
851.61	228.17
851.92	228.17
852.23	228.21
852.55	228.22
852.86	228.21
853.17	228.22
853.49	228.24
853.80	228.26
854.11	228.27
854.42	228.28
854.74	228.27
855.05	228.28
855.36	228.21
855.67	228.21
855.99	228.21
856.30	228.35
856.61	228.35
856.92	228.35
857.23	228.36
857.55	228.35
857.86	228.34
858.17	228.36
858.48	228.34
858.79	228.31
859.11	228.32
859.42	228.32
859.73	228.30
860.04	228.29
860.35	228.25
860.66	228.21
860.98	228.20
861.29	228.21
861.60	228.20
861.91	228.23
862.22	228.21
862.53	228.20
862.84	228.05
863.16	228.08
863.47	228.06
863.78	228.04
864.09	228.04
864.40	228.05
864.71	228.05
865.02	228.06
865.33	228.03
865.64	228.00
865.95	228.01
866.27	228.08
866.58	228.06
866.89	228.08
867.20	228.07
867.51	228.05
867.82	228.05
868.13	228.09
868.44	228.05
868.75	228.08
869.06	228.08
869.37	228.08
869.68	228.05
869.99	228.07
870.30	228.07
870.61	228.10
870.92	228.07
871.23	228.06
871.54	228.08
871.85	228.12
872.16	228.14
872.47	228.13
872.78	228.06
873.09	228.06
873.40	228.05
873.71	228.06
874.02	228.08
874.33	228.06
874.64	228.03
874.95	228.06
875.26	228.03
875.56	228.01
875.87	228.00
876.18	228.00
876.49	228.11
876.80	228.09
877.11	228.05
877.42	228.06
877.73	228.06
878.04	228.04
878.35	228.03
878.66	228.03
878.96	228.02
879.27	228.02
879.58	228.01
879.89	228.01
880.20	228.03
880.51	228.02
880.82	228.02
881.12	228.03
881.43	228.00
881.74	227.99
882.05	227.99
882.36	228.01
882.67	228.01
882.97	227.88
883.28	227.87
883.59	227.87
883.90	227.89
884.21	227.91
884.51	227.91
884.82	227.89
885.13	227.88
885.44	227.89
885.74	227.89
886.05	227.89
886.36	227.89
886.67	227.85
886.98	227.91
887.28	227.94
887.59	227.93
887.90	227.94
888.20	227.93
888.51	227.95
888.82	227.93
889.13	227.95
889.43	228.05
889.74	228.05
890.05	228.05
890.35	228.03
890.66	228.00
890.97	227.99
891.28	227.97
891.58	227.98
891.89	227.97
892.20	227.96
892.50	227.96
892.81	227.96
893.12	227.95
893.42	227.89
893.73	227.89
894.04	227.89
894.34	227.90
894.65	227.91
894.95	227.90
895.26	227.90
895.57	227.95
895.87	227.83
896.18	227.84
896.48	227.85
896.79	227.85
897.10	227.87
897.40	227.88
897.71	227.89
898.01	227.87
898.32	227.88
898.63	227.88
898.93	227.88
899.24	227.88
899.54	227.88
899.85	227.87
900.15	227.85
900.46	227.85
900.76	227.86
901.07	227.85
901.38	227.84
901.68	227.86
901.99	227.80
902.29	227.81
902.60	227.80
902.90	227.79
903.21	227.78
903.51	227.76
903.82	227.79
904.12	227.80
904.43	227.81
904.73	227.81
905.03	227.81
905.34	227.92
905.64	227.91
905.95	227.91
906.25	227.92
906.56	227.92
906.86	227.92
907.17	227.90
907.47	227.90
907.77	227.88
908.08	227.87
908.38	227.87
908.69	227.87
908.99	227.89
909.30	227.90
909.60	227.90
909.90	227.91
910.21	227.87
910.51	227.85
910.81	227.85
911.12	227.85
911.42	227.86
911.73	227.72
912.03	227.73
912.33	227.75
912.64	227.74
912.94	227.72
913.24	227.71
913.55	227.70
913.85	227.70
914.15	227.72
914.46	227.72
914.76	227.71
915.06	227.71
915.37	227.69
915.67	227.68
915.97	227.68
916.27	227.66
916.58	227.67
916.88	227.67
917.18	227.65
917.49	227.73
917.79	227.72
918.09	227.75
918.39	227.77
918.70	227.76
919.00	227.77
919.30	227.83
919.60	227.82
919.91	227.80
920.21	227.80
920.51	227.78
920.81	227.78
921.12	227.80
921.42	227.79
921.72	227.80
922.02	227.80
922.32	227.82
922.63	227.82
922.93	227.89
923.23	227.89
923.53	227.88
923.83	227.80
924.13	227.82
924.44	227.81
924.74	227.83
925.04	227.86
925.34	227.86
925.64	227.80
925.94	227.80
926.24	227.87
926.55	227.86
926.85	227.88
927.15	227.87
927.45	227.86
927.75	227.86
928.05	227.85
928.35	227.84
928.65	227.85
928.95	227.87
929.26	227.80
929.56	227.83
929.86	227.84
930.16	227.83
930.46	227.81
930.76	227.81
931.06	227.76
931.36	227.72
931.66	227.74
931.96	227.75
932.26	227.77
932.56	227.72
932.86	227.72
933.16	227.73
933.46	227.71
933.76	227.70
934.06	227.71
934.36	227.75
934.66	227.76
934.96	227.74
935.26	227.73
935.56	227.75
935.86	227.71
936.16	227.70
936.46	227.69
936.76	227.69
937.06	227.68
937.36	227.68
937.66	227.68
937.96	227.67
938.26	227.64
938.56	227.63
938.86	227.64
939.16	227.66
939.46	227.66
939.76	227.67
940.06	227.67
940.35	227.66
940.65	227.60
940.95	227.60
941.25	227.57
941.55	227.55
941.85	227.54
942.15	227.57
942.45	227.60
942.75	227.59
943.04	227.59
943.34	227.61
943.64	227.60
943.94	227.58
944.24	227.58
944.54	227.59
944.84	227.58
945.13	227.57
945.43	227.55
945.73	227.56
946.03	227.55
946.33	227.54
946.62	227.53
946.92	227.53
947.22	227.54
947.52	227.55
947.82	227.58
948.11	227.58
948.41	227.55
948.71	227.52
949.01	227.54
949.31	227.52
949.60	227.52
949.90	227.55
950.20	227.54
950.50	227.54
950.79	227.53
951.09	227.55
951.39	227.55
951.69	227.53
951.98	227.55
952.28	227.55
952.58	227.55
952.87	227.56
953.17	227.56
953.47	227.55
953.76	227.55
954.06	227.53
954.36	227.51
954.66	227.51
954.95	227.53
955.25	227.54
955.55	227.56
955.84	227.54
956.14	227.54
956.44	227.55
956.73	227.54
957.03	227.55
957.32	227.55
957.62	227.55
957.92	227.57
958.21	227.56
958.51	227.70
958.81	227.72
959.10	227.72
959.40	227.76
959.69	227.77
959.99	227.78
960.29	227.78
960.58	227.78
960.88	227.83
961.17	227.82
961.47	227.82
961.76	227.80
962.06	227.83
962.36	227.83
962.65	227.82
962.95	227.83
963.24	227.82
963.54	227.82
963.83	227.84
964.13	227.83
964.42	227.81
964.72	227.71
965.01	227.71
965.31	227.70
965.60	227.65
965.90	227.73
966.19	227.71
966.49	227.72
966.78	227.72
967.08	227.71
967.37	227.71
967.67	227.69
967.96	227.72
968.26	227.71
968.55	227.73
968.85	227.73
969.14	227.73
969.43	227.73
969.73	227.72
970.02	227.71
970.32	227.70
970.61	227.69
970.91	227.66
971.20	227.64
971.49	227.63
971.79	227.65
972.08	227.57
972.38	227.59
972.67	227.58
972.96	227.59
973.26	227.57
973.55	227.61
973.85	227.61
974.14	227.59
974.43	227.61
974.73	227.58
975.02	227.57
975.31	227.58
975.61	227.57
975.90	227.57
976.19	227.56
976.49	227.57
976.78	227.58
977.07	227.58
977.37	227.59
977.66	227.60
977.95	227.58
978.24	227.58
978.54	227.59
978.83	227.58
979.12	227.57
979.42	227.57
979.71	227.54
980.00	227.55
980.29	227.55
980.59	227.52
980.88	227.56
981.17	227.56
981.46	227.55
981.76	227.55
982.05	227.59
982.34	227.60
982.63	227.61
982.93	227.60
983.22	227.64
983.51	227.64
983.80	227.66
984.09	227.68
984.39	227.67
984.68	227.67
984.97	227.67
985.26	227.66
985.55	227.67
985.85	227.64
986.14	227.66
986.43	227.68
986.72	227.67
987.01	227.62
987.30	227.62
987.59	227.61
987.89	227.61
988.18	227.58
988.47	227.56
988.76	227.54
989.05	227.53
989.34	227.51
989.63	227.54
989.92	227.52
990.22	227.50
990.51	227.50
990.80	227.49
991.09	227.51
991.38	227.52
991.67	227.51
991.96	227.50
992.25	227.50
992.54	227.48
992.83	227.48
993.12	227.48
993.41	227.50
993.70	227.56
993.99	227.59
994.28	227.60
994.58	227.62
994.87	227.62
995.16	227.62
995.45	227.61
995.74	227.56
996.03	227.57
996.32	227.59
996.61	227.61
996.90	227.61
997.19	227.60
997.48	227.60
997.77	227.59
998.06	227.60
998.34	227.59
998.63	227.59
998.92	227.60
999.21	227.62
999.50	227.62
999.79	227.57
1000.08	227.56
1000.37	227.56
1000.66	227.56
1000.95	227.58
1001.24	227.59
1001.53	227.61
1001.82	227.61
1002.11	227.58
1002.40	227.60
1002.68	227.62
1002.97	227.70
1003.26	227.69
1003.55	227.67
1003.84	227.68
1004.13	227.72
1004.42	227.71
1004.71	227.71
1004.99	227.71
1005.28	227.74
1005.57	227.72
1005.86	227.72
1006.15	227.71
1006.44	227.69
1006.72	227.68
1007.01	227.66
1007.30	227.66
1007.59	227.65
1007.88	227.64
1008.17	227.65
1008.45	227.63
1008.74	227.58
1009.03	227.52
1009.32	227.52
1009.60	227.52
1009.89	227.51
1010.18	227.46
1010.47	227.46
1010.76	227.46
1011.04	227.45
1011.33	227.44
1011.62	227.44
1011.91	227.45
1012.19	227.45
1012.48	227.47
1012.77	227.48
1013.05	227.51
1013.34	227.52
1013.63	227.50
1013.92	227.52
1014.20	227.50
1014.49	227.51
1014.78	227.53
1015.06	227.49
1015.35	227.49
1015.64	227.51
1015.92	227.53
1016.21	227.53
1016.50	227.53
1016.78	227.54
1017.07	227.55
1017.36	227.53
1017.64	227.51
1017.93	227.52
1018.22	227.50
1018.50	227.50
1018.79	227.49
1019.08	227.45
1019.36	227.44
1019.65	227.45
1019.93	227.48
1020.22	227.49
1020.51	227.55
1020.79	227.53
1021.08	227.27
1021.36	227.25
1021.65	227.59
1021.94	227.31
1022.22	227.46
1022.51	227.40
1022.79	228.07
1023.08	227.64
1023.36	229.01
1023.65	227.08
>>>>>End Processed Spectral Data<<<<<
